Time (s),Fᵧ (N),rᵧ (m),vᵧ (m/s),aᵧ (m/s²)
4.079999923706055,-0.7814542055130005,0.061542101204395294,0.20169977843761444,-3.8567185401916504
4.090000152587891,-0.7905900478363037,0.06315236538648605,0.16091430187225342,-3.9159436225891113
4.099999904632568,-0.7943168878555298,0.06438662111759186,0.12334049493074417,-3.989825963973999
4.110000133514404,-0.7929829359054565,0.065284863114357,0.08973877131938934,-4.075197696685791
4.119999885559082,-0.7886086106300354,0.06570132821798325,0.041501160711050034,-4.110228061676025
4.130000114440918,-0.7795119881629944,0.06570444256067276,0.00022365222685039043,-4.147332668304443
4.139999866485596,-0.765012800693512,0.06529778242111206,-0.040785469114780426,-4.184926986694336
4.150000095367432,-0.7481483817100525,0.06444310396909714,-0.0855877548456192,-4.201992988586426
4.159999847412109,-0.7258847951889038,0.06314042955636978,-0.13039004802703857,-4.13010311126709
4.170000076293945,-0.6999122500419617,0.06146484985947609,-0.1676507443189621,-3.976344585418701
4.179999828338623,-0.6705544590950012,0.059377703815698624,-0.2088387906551361,-3.8094723224639893
4.190000057220459,-0.6334288716316223,0.05684255436062813,-0.2536410987377167,-3.6250033378601074
4.199999809265137,-0.5922723412513733,0.05393584817647934,-0.2907676100730896,-3.3817174434661865
4.210000038146973,-0.5480802655220032,0.050770021975040436,-0.31664878129959106,-3.1581923961639404
4.21999979019165,-0.5011764764785767,0.047302860766649246,-0.34681516885757446,-2.932462692260742
4.230000019073486,-0.4526084065437317,0.04357747733592987,-0.37260690331459045,-2.654554843902588
4.239999771118164,-0.3992610275745392,0.03954985737800598,-0.4028627872467041,-2.3724169731140137
4.25,-0.34328973293304443,0.035343583673238754,-0.4206656217575073,-2.1324381828308105
4.260000228881836,-0.28556156158447266,0.03086705692112446,-0.44775456190109253,-1.9220268726348877
4.269999980926514,-0.22485151886940002,0.026213668286800385,-0.46537840366363525,-1.6665171384811401
4.28000020980835,-0.1648377627134323,0.021448275074362755,-0.4765789806842804,-1.3611564636230469
4.289999961853027,-0.10615142434835434,0.016570881009101868,-0.48777949810028076,-1.0737272500991821
4.300000190734863,-0.04575537517666817,0.011581485159695148,-0.4989801049232483,-0.7680398225784302
4.309999942779541,0.011531973257660866,0.006480085197836161,-0.510180652141571,-0.4436614215373993
4.320000171661377,0.06990760564804077,0.0013484805822372437,-0.5131686925888062,-0.16898706555366516
4.329999923706055,0.12617498636245728,-0.0037008824292570353,-0.5049114227294922,0.13181723654270172
4.340000152587891,0.1815200001001358,-0.008803618140518665,-0.5103148818016052,0.43358513712882996
4.349999904632568,0.2381826788187027,-0.013768956996500492,-0.4964751899242401,0.775772750377655
4.360000133514404,0.2906971573829651,-0.018677448853850365,-0.49085700511932373,1.072314739227295
4.369999885559082,0.3405779302120209,-0.023501915857195854,-0.48242080211639404,1.3483445644378662
4.380000114440918,0.38843342661857605,-0.02812991291284561,-0.4627392590045929,1.6398565769195557
4.389999866485596,0.4332534372806549,-0.032618820667266846,-0.44886380434036255,1.9752421379089355
4.400000095367432,0.47604814171791077,-0.03682500123977661,-0.4205224812030792,2.2915446758270264
4.409999847412109,0.5161001682281494,-0.04086679220199585,-0.4041510224342346,2.6296985149383545
4.420000076293945,0.5538308024406433,-0.044624075293540955,-0.3756307363510132,2.8666317462921143
4.429999828338623,0.5870847105979919,-0.04804535210132599,-0.34202900528907776,3.0710983276367188
4.440000057220459,0.6139746904373169,-0.05113062262535095,-0.3084273040294647,3.2595927715301514
4.449999809265137,0.6395584344863892,-0.05379230156540871,-0.26603150367736816,3.411505937576294
4.460000038146973,0.6606557369232178,-0.05609400197863579,-0.23006799817085266,3.5546326637268066
4.46999979019165,0.6746668815612793,-0.058148179203271866,-0.20534980297088623,3.6004576683044434
4.480000019073486,0.6843410730361938,-0.05980050191283226,-0.16509215533733368,3.6046056747436523
4.489999771118164,0.6917053461074829,-0.06109417974948883,-0.12926284968852997,3.629176139831543
4.5,0.6935598850250244,-0.06196204200387001,-0.08664341270923615,3.6763079166412354
4.510000228881836,0.691082239151001,-0.062472157180309296,-0.0509035624563694,3.7439684867858887
4.519999980926514,0.6845541596412659,-0.06264626234769821,-0.01730184070765972,3.8321566581726074
4.53000020980835,0.6732385158538818,-0.062484364956617355,0.01629987731575966,3.840632677078247
4.539999961853027,0.6573241949081421,-0.06189486011862755,0.059098225086927414,3.83880352973938
4.550000190734863,0.6403946280479431,-0.060857340693473816,0.10390050709247589,3.805063009262085
4.559999942779541,0.6186776757240295,-0.059464313089847565,0.13941670954227448,3.7811219692230225
4.570000171661377,0.5949304699897766,-0.05764234438538551,0.18234926462173462,3.7351250648498535
4.579999923706055,0.5661224126815796,-0.05546573922038078,0.21777600049972534,3.5727598667144775
4.590000152587891,0.5325172543525696,-0.05295313149690628,0.25137773156166077,3.3371498584747314
4.599999904632568,0.4943327009677887,-0.05010451376438141,0.2849794328212738,3.143625020980835
4.610000133514404,0.4516128599643707,-0.046919893473386765,0.31858116388320923,2.890165090560913
4.619999885559082,0.4063405990600586,-0.04339926689863205,0.35218286514282227,2.6243584156036377
4.630000114440918,0.3572796881198883,-0.039733849465847015,0.36658617854118347,2.376075029373169
4.639999866485596,0.30593323707580566,-0.03586037456989288,0.3874306380748749,2.121912717819214
4.650000095367432,0.2540743052959442,-0.03166639804840088,0.41952043771743774,1.8751726150512695
4.659999847412109,0.1999461054801941,-0.027427246794104576,0.42392194271087646,1.6120444536209106
4.670000076293945,0.14530710875988007,-0.022993316873908043,0.44347822666168213,1.3551627397537231
4.679999828338623,0.08990677446126938,-0.018433216959238052,0.45605650544166565,1.1354427337646484
4.690000057220459,0.033244095742702484,-0.01376111526042223,0.4672570824623108,0.8306863307952881
4.699999809265137,-0.023418577387928963,-0.008977011777460575,0.47845765948295593,0.5409055948257446
4.710000038146973,-0.08109145611524582,-0.004180076532065868,0.4797011613845825,0.30918222665786743
4.71999979019165,-0.13597609102725983,0.000616858247667551,0.4797011613845825,-0.03440984711050987
4.730000019073486,-0.18984566628932953,0.0054137930274009705,0.4797011613845825,-0.3372066020965576
4.739999771118164,-0.24067972600460052,0.010110219940543175,0.46960991621017456,-0.6521047949790955
4.75,-0.2904987037181854,0.014795597642660141,0.4685453176498413,-1.00603449344635
4.760000228881836,-0.3398410379886627,0.01937957853078842,0.4583646357059479,-1.270926594734192
4.769999980926514,-0.38787057995796204,0.023749710991978645,0.43693864345550537,-1.563843011856079
4.78000020980835,-0.4326271712779999,0.027998128905892372,0.42480766773223877,-1.869693636894226
4.789999961853027,-0.47558942437171936,0.03203180432319641,0.4032922089099884,-2.1104891300201416
4.800000190734863,-0.5142717361450195,0.03573830425739288,0.37053143978118896,-2.364537239074707
4.809999942779541,-0.550146222114563,0.039316046983003616,0.3577384352684021,-2.563141107559204
4.820000171661377,-0.58197021484375,0.04257363826036453,0.32563966512680054,-2.776458978652954
4.829999923706055,-0.6105292439460754,0.045495230704545975,0.2920379638671875,-2.9911491870880127
4.840000152587891,-0.6354883313179016,0.04818577691912651,0.26897478103637695,-3.090409994125366
4.849999904632568,-0.6543716192245483,0.05054691433906555,0.23599034547805786,-3.211399793624878
4.860000133514404,-0.6687601208686829,0.052572041749954224,0.20238862931728363,-3.3534810543060303
4.869999885559082,-0.6803311705589294,0.054154861718416214,0.15811415016651154,-3.3991923332214355
4.880000114440918,-0.6842435002326965,0.055396419018507004,0.12402934581041336,-3.488997459411621
4.889999866485596,-0.6864818930625916,0.056409161537885666,0.10118983685970306,-3.5711841583251953
4.900000095367432,-0.6864818334579468,0.056982625275850296,0.05717480182647705,-3.5839223861694336
4.909999847412109,-0.6820651888847351,0.05721616744995117,0.02322418801486492,-3.574335813522339
4.920000076293945,-0.6741836667060852,0.05711369588971138,-0.010377529077231884,-3.5442214012145996
4.929999828338623,-0.6608607172966003,0.05656624585390091,-0.05492037534713745,-3.553497314453125
4.940000057220459,-0.6438677310943604,0.05568021163344383,-0.08873680233955383,-3.5536935329437256
4.949999809265137,-0.6230340600013733,0.054458167403936386,-0.12233851104974747,-3.4832160472869873
4.960000038146973,-0.5989566445350647,0.05290011316537857,-0.1559402346611023,-3.4015438556671143
4.96999979019165,-0.5746725797653198,0.051004279404878616,-0.18956878781318665,-3.268869161605835
4.980000019073486,-0.5469480156898499,0.048765480518341064,-0.22327786684036255,-3.094794988632202
4.989999771118164,-0.5121374130249023,0.046196743845939636,-0.256879597902298,-2.95112943649292
5,-0.47307443618774414,0.04329342022538185,-0.2903381884098053,-2.746793270111084
5.010000228881836,-0.4299609363079071,0.040166087448596954,-0.3127393424510956,-2.552035331726074
5.019999980926514,-0.38462358713150024,0.03681475669145584,-0.3351404666900635,-2.3269100189208984
5.03000020980835,-0.3388975262641907,0.033239420503377914,-0.35754165053367615,-2.0907609462738037
5.039999961853027,-0.2925467789173126,0.02944328635931015,-0.37962067127227783,-1.8159067630767822
5.050000190734863,-0.24701261520385742,0.025531496852636337,-0.3911880850791931,-1.5811049938201904
5.059999942779541,-0.1978118121623993,0.02139980159699917,-0.4131776690483093,-1.3554404973983765
5.070000171661377,-0.14722013473510742,0.017156105488538742,-0.42437827587127686,-1.1079983711242676
5.079999923706055,-0.09561827033758163,0.012805399484932423,-0.43507781624794006,-0.8128935694694519
5.090000152587891,-0.04419858008623123,0.008449255488812923,-0.43562352657318115,-0.5470870137214661
5.099999904632568,0.006576916202902794,0.003986991476267576,-0.4462336301803589,-0.27966368198394775
5.110000133514404,0.057168591767549515,-0.00047527378774248064,-0.4462336301803589,0.016812970861792564
5.119999885559082,0.10776025801897049,-0.004930766765028238,-0.4455537796020508,0.3114278018474579
5.130000114440918,0.15751740336418152,-0.009281475096940994,-0.43507784605026245,0.5772343873977661
5.139999866485596,0.20692157745361328,-0.013624520041048527,-0.4343084990978241,0.8451476097106934
5.150000095367432,0.25482749938964844,-0.01785556599497795,-0.42310792207717896,1.137908935546875
5.159999847412109,0.3005324602127075,-0.021966055035591125,-0.4110485315322876,1.381701111793518
5.170000076293945,0.3432019054889679,-0.025861533358693123,-0.38955095410346985,1.6074388027191162
5.179999828338623,0.3848562240600586,-0.02963556908071041,-0.37740206718444824,1.8460378646850586
5.190000057220459,0.42347511649131775,-0.03318559750914574,-0.35500094294548035,2.113910436630249
5.199999809265137,0.45837682485580444,-0.0365116260945797,-0.33259978890419006,2.2979302406311035
5.210000038146973,0.49075552821159363,-0.03961364924907684,-0.3101986348628998,2.4799742698669434
5.21999979019165,0.5195765495300293,-0.04248043894767761,-0.2866702675819397,2.6456053256988525
5.230000019073486,0.5431723594665527,-0.04501122981309891,-0.2530685365200043,2.8189284801483154
5.239999771118164,0.5608550310134888,-0.04721812903881073,-0.2206835001707077,2.9007151126861572
5.25,0.5761903524398804,-0.04918845370411873,-0.19702093303203583,2.9871068000793457
5.260000228881836,0.5857686400413513,-0.050822775810956955,-0.1634192317724228,3.1002495288848877
5.269999980926514,0.5930059552192688,-0.05212109163403511,-0.12981750071048737,3.1374435424804688
5.28000020980835,0.5972078442573547,-0.053097303956747055,-0.09761138260364532,3.1565840244293213
5.289999961853027,0.5985238552093506,-0.05383516475558281,-0.07376991212368011,3.23311185836792
5.300000190734863,0.5957893133163452,-0.0542222261428833,-0.038683127611875534,3.268583297729492
5.309999942779541,0.5917419791221619,-0.05419175326824188,0.0030595827847719193,3.2769615650177
5.320000171661377,0.5840882062911987,-0.05392158776521683,0.027035247534513474,3.338301420211792
5.329999923706055,0.572092592716217,-0.05329929292201996,0.062256213277578354,3.392251491546631
5.340000152587891,0.5572029948234558,-0.052262138575315475,0.10373053699731827,3.387286901473999
5.349999904632568,0.5373925566673279,-0.050983961671590805,0.12784039974212646,3.2968361377716064
5.360000133514404,0.5132500529289246,-0.049352314323186874,0.16319556534290314,3.218250274658203
5.369999885559082,0.4880925416946411,-0.04729056730866432,0.20619967579841614,3.1355738639831543
5.380000114440918,0.4590242803096771,-0.04491116851568222,0.23795849084854126,2.939648389816284
5.389999866485596,0.4259054362773895,-0.04230776056647301,0.26035964488983154,2.7369048595428467
5.400000095367432,0.3887360095977783,-0.03946110978722572,0.28469318151474,2.5197322368621826
5.409999847412109,0.3465057909488678,-0.03629813715815544,0.3163177967071533,2.201608657836914
5.420000076293945,0.30312711000442505,-0.03293130174279213,0.33669713139533997,1.9384968280792236
5.429999828338623,0.2586064338684082,-0.02943188138306141,0.3499642610549927,1.7321441173553467
5.440000057220459,0.21408572793006897,-0.025729482993483543,0.3702540993690491,1.5097458362579346
5.449999809265137,0.16766829788684845,-0.021936558187007904,0.3792986571788788,1.2502267360687256
5.460000038146973,0.12023575603961945,-0.018099794164299965,0.3837001621723175,0.9862491488456726
5.46999979019165,0.07077791541814804,-0.014061392284929752,0.4038558006286621,0.7674601674079895
5.480000019073486,0.019176030531525612,-0.009933797642588615,0.4127661883831024,0.5323235392570496
5.489999771118164,-0.029512351378798485,-0.005806202534586191,0.4127661883831024,0.30144938826560974
5.5,-0.07617544382810593,-0.0016786057967692614,0.4127661883831024,0.07372719049453735
5.510000228881836,-0.12271978706121445,0.0024489888455718756,0.4127661883831024,-0.21115423738956451
5.519999980926514,-0.16645799577236176,0.00655199121683836,0.4102970063686371,-0.5190626382827759
5.53000020980835,-0.20996521413326263,0.010568029247224331,0.4016103446483612,-0.7790308594703674
5.539999961853027,-0.2514519989490509,0.014558585360646248,0.3990517556667328,-0.9881681799888611
5.550000190734863,-0.29495924711227417,0.01841120980679989,0.3852478563785553,-1.2249623537063599
5.559999942779541,-0.33453136682510376,0.022066203877329826,0.3654947578907013,-1.4937412738800049
5.570000171661377,-0.3751087784767151,0.02558237314224243,0.35160139203071594,-1.7268118858337402
5.579999923706055,-0.4135584533214569,0.028901807963848114,0.3319377601146698,-1.9310499429702759
5.590000152587891,-0.4463503360748291,0.03208152949810028,0.3179549276828766,-2.1433308124542236
5.599999904632568,-0.4776163399219513,0.03500908613204956,0.2927268147468567,-2.2864575386047363
5.610000133514404,-0.503411591053009,0.03762924298644066,0.2619967758655548,-2.4269630908966064
5.619999885559082,-0.5256718993186951,0.04002539440989494,0.23959565162658691,-2.554542303085327
5.630000114440918,-0.5460061430931091,0.04216804727911949,0.21423332393169403,-2.6724045276641846
5.639999866485596,-0.5624801516532898,0.04400463402271271,0.18363749980926514,-2.777871608734131
5.650000095367432,-0.5747165083885193,0.045586831867694855,0.15818572044372559,-2.8085415363311768
5.659999847412109,-0.5850170850753784,0.046863853931427,0.12767937779426575,-2.867464780807495
5.670000076293945,-0.5911791324615479,0.04788559302687645,0.10213813185691833,-2.9659743309020996
5.679999828338623,-0.594391942024231,0.04857133328914642,0.06853640824556351,-2.987825632095337
5.690000057220459,-0.5935541391372681,0.04895322024822235,0.038164250552654266,-3.0330464839935303
5.699999809265137,-0.588665783405304,0.049078501760959625,0.012488815002143383,-3.0577392578125
5.710000038146973,-0.5816660523414612,0.04883471503853798,-0.024431919679045677,-3.0770509243011475
5.71999979019165,-0.5687593817710876,0.04824342951178551,-0.059142954647541046,-3.108733654022217
5.730000019073486,-0.5555258393287659,0.04743829742074013,-0.08056896924972534,-3.109623670578003
5.739999771118164,-0.5376284718513489,0.04625394195318222,-0.11846482753753662,-3.0671136379241943
5.75,-0.5173917412757874,0.04481074586510658,-0.14436392486095428,-2.955947160720825
5.760000228881836,-0.4942708909511566,0.043031543493270874,-0.17796564102172852,-2.8025970458984375
5.769999980926514,-0.46904829144477844,0.040916331112384796,-0.21156737208366394,-2.6557960510253906
5.78000020980835,-0.4388396739959717,0.03850128874182701,-0.2415369600057602,-2.496370792388916
5.789999961853027,-0.40754276514053345,0.03589887171983719,-0.2602612376213074,-2.29510498046875
5.800000190734863,-0.3703131377696991,0.033147379755973816,-0.27518340945243835,-2.1043238639831543
5.809999942779541,-0.3309183418750763,0.03017188049852848,-0.29758456349372864,-1.8519089221954346
5.820000171661377,-0.2894982397556305,0.02701033465564251,-0.3161746561527252,-1.5660802125930786
5.829999923706055,-0.24794963002204895,0.023698387667536736,-0.331231027841568,-1.3488754034042358
5.840000152587891,-0.205516055226326,0.02020128257572651,-0.3497316539287567,-1.1817419528961182
5.849999904632568,-0.1649809181690216,0.016592176631093025,-0.36093220114707947,-1.0079452991485596
5.860000133514404,-0.12355431169271469,0.012950547970831394,-0.36415284872055054,-0.8195812106132507
5.869999885559082,-0.08105729520320892,0.009340549819171429,-0.36102166771888733,-0.6012086272239685
5.880000114440918,-0.036593563854694366,0.005618550814688206,-0.37222224473953247,-0.3614012897014618
5.889999866485596,0.007927114143967628,0.001825625658966601,-0.3792986571788788,-0.11065203696489334
5.900000095367432,0.052447784692049026,-0.0020088213495910168,-0.38346755504608154,0.09143021702766418
5.909999847412109,0.09403544664382935,-0.005871335510164499,-0.3862408697605133,0.2665415108203888
5.920000076293945,0.13450877368450165,-0.009621848352253437,-0.37504029273986816,0.5074266791343689
5.929999828338623,0.17401747405529022,-0.01326035801321268,-0.363839715719223,0.8204222917556763
5.940000057220459,0.21246714890003204,-0.016786865890026093,-0.3526391386985779,1.1112481355667114
5.949999809265137,0.25188472867012024,-0.02024512179195881,-0.34583112597465515,1.373045563697815
5.960000038146973,0.29138854146003723,-0.02361498773097992,-0.33695656061172485,1.5921776294708252
5.96999979019165,0.32591450214385986,-0.026760848239064217,-0.31455540657043457,1.7557510137557983
5.980000019073486,0.35829320549964905,-0.02968270517885685,-0.2921542525291443,1.9151924848556519
5.989999771118164,0.38572821021080017,-0.03238055855035782,-0.269753098487854,2.0810601711273193
6,0.41004958748817444,-0.03485440835356712,-0.24735195934772491,2.2482264041900635
6.010000228881836,0.4333559274673462,-0.037104252725839615,-0.22495080530643463,2.3445558547973633
6.019999980926514,0.45463696122169495,-0.03913009539246559,-0.20254966616630554,2.3709306716918945
6.03000020980835,0.47089138627052307,-0.040931928902864456,-0.18014852702617645,2.4304006099700928
6.039999961853027,0.48609817028045654,-0.042461998760700226,-0.15295223891735077,2.529726982116699
6.050000190734863,0.4932965040206909,-0.04370426386594772,-0.12419038265943527,2.5982611179351807
6.059999942779541,0.5003777146339417,-0.044722530990839005,-0.10178923606872559,2.658294677734375
6.070000171661377,0.5044510364532471,-0.04551679268479347,-0.0793880894780159,2.7343568801879883
6.079999923706055,0.5065202713012695,-0.045987967401742935,-0.04703882709145546,2.793443202972412
6.090000152587891,0.5035092234611511,-0.046111106872558594,-0.012274108827114105,2.824113130569458
6.099999904632568,0.49950093030929565,-0.04601024463772774,0.010127035900950432,2.854783058166504
6.110000133514404,0.4904318153858185,-0.045634496957063675,0.03763642534613609,2.88545298576355
